# [0] Wavenumber, $k$ [$h$/Mpc]# [1] $P(k)$, [Mpc$^3 h^{-3}$]# [2] $T(k)$, [Mpc$^3 h^{-3}$]# [3] $\Delta(k)$# [4] $\Delta^2_{\rm halofit}(k)$# [5] $P_{\rm halofit}(k)$ [Mpc$^3 h^{-3}$]9.948440815646671230e-09 4.666706366283842472e-02 1.927768361869632827e+03 2.327800710068597012e-27 2.327800710068597012e-27 4.666706366283842472e-02
1.045850828349686995e-08 4.898858940671336343e-02 1.927767167401391134e+03 2.839059062742078399e-27 2.839059062742078399e-27 4.898858940671336343e-02
1.099472746964949198e-08 5.142560306340002857e-02 1.927765972933889316e+03 3.462605852328484920e-27 3.462605852328484920e-27 5.142560306340003551e-02
1.155843920137401752e-08 5.398384975893927989e-02 1.927764778467128053e+03 4.223103156226482425e-27 4.223103156226482425e-27 5.398384975893927989e-02
1.215105305162408835e-08 5.666936041961221499e-02 1.927763584001106665e+03 5.150629620791789862e-27 5.150629620791789862e-27 5.666936041961221499e-02
1.277405086370409768e-08 5.948846598951804121e-02 1.927762389535825378e+03 6.281870110481154081e-27 6.281870110481154081e-27 5.948846598951803427e-02
1.342899045664931297e-08 6.244781235542766484e-02 1.927761195071284192e+03 7.661566641417743508e-27 7.661566641417743508e-27 6.244781235542766484e-02
1.411750952058489602e-08 6.555437601409730419e-02 1.927760000607483107e+03 9.344287985666278835e-27 9.344287985666278835e-27 6.555437601409730419e-02
1.484132971180425237e-08 6.881548051897688756e-02 1.927758806144422124e+03 1.139658793634271175e-26 1.139658793634271175e-26 6.881548051897688756e-02
1.560226095780652959e-08 7.223881374508567266e-02 1.927757611682101242e+03 1.389963759571898780e-26 1.389963759571898780e-26 7.223881374508568654e-02
1.640220598305811655e-08 7.583244601275601626e-02 1.927756417220520461e+03 1.695243579670254305e-26 1.695243579670254305e-26 7.583244601275600238e-02
1.724316506679489793e-08 7.960484911297094346e-02 1.927755222759679782e+03 2.067572463398865287e-26 2.067572463398865287e-26 7.960484911297094346e-02
1.812724104476224508e-08 8.356491627914676423e-02 1.927754028299579204e+03 2.521676496917787029e-26 2.521676496917787029e-26 8.356491627914676423e-02
1.905664456739967953e-08 8.772198315244297828e-02 1.927752833840218727e+03 3.075516078722718959e-26 3.075516078722718959e-26 8.772198315244297828e-02
2.003369962761847816e-08 9.208584979002464033e-02 1.927751639381598352e+03 3.750996276502299122e-26 3.750996276502299122e-26 9.208584979002462645e-02
2.106084937199443792e-08 9.666680376815928177e-02 1.927750444923718078e+03 4.574833200734707378e-26 4.574833200734707378e-26 9.666680376815928177e-02
2.214066220990690501e-08 1.014756444346139874e-01 1.927749250466577905e+03 5.579610661213550926e-26 5.579610661213550926e-26 1.014756444346139874e-01
2.327583823590005298e-08 1.065237083675253937e-01 1.927748056010177834e+03 6.805068898627428090e-26 6.805068898627428090e-26 1.065237083675254076e-01
2.446921598132564822e-08 1.118228961007609601e-01 1.927746861554517864e+03 8.299676362184425603e-26 8.299676362184425603e-26 1.118228961007609601e-01
2.572377951214995982e-08 1.173857001787747961e-01 1.927745667099597995e+03 1.012254669910789610e-25 1.012254669910789610e-25 1.173857001787747961e-01
2.704266589067301290e-08 1.232252346070961541e-01 1.927744472645418227e+03 1.234577677540329228e-25 1.234577677540329228e-25 1.232252346070961402e-01
2.842917301981834574e-08 1.293552657678783135e-01 1.927743278191978789e+03 1.505729819962401992e-25 1.505729819962401992e-25 1.293552657678783413e-01
2.988676788960813527e-08 1.357902448733892264e-01 1.927742083739279224e+03 1.836435513106824524e-25 1.836435513106824524e-25 1.357902448733892264e-01
3.141909524644411571e-08 1.425453420339522492e-01 1.927740889287319760e+03 2.239774592419333201e-25 2.239774592419333201e-25 1.425453420339522492e-01
3.302998670687205708e-08 1.496364820206489976e-01 1.927739694836100398e+03 2.731699637173908506e-25 2.731699637173908506e-25 1.496364820206489699e-01
3.472347033861891412e-08 1.570803818070939939e-01 1.927738500385621137e+03 3.331666915497802555e-25 3.331666915497802555e-25 1.570803818070939939e-01
3.650378073286028096e-08 1.648945899787827574e-01 1.927737305935881977e+03 4.063405904796395043e-25 4.063405904796395043e-25 1.648945899787827296e-01
3.837536959290403761e-08 1.730975281029202006e-01 1.927736111486882919e+03 4.955857823100296501e-25 4.955857823100296501e-25 1.730975281029202006e-01
4.034291686576738941e-08 1.817085341562545697e-01 1.927734917038623962e+03 6.044320291456349175e-25 6.044320291456349175e-25 1.817085341562545697e-01
4.241134244448210564e-08 1.907479081132973930e-01 1.927733722591104879e+03 7.371843400232186484e-25 7.371843400232186484e-25 1.907479081132974208e-01
4.458581847038973629e-08 2.002369598023999164e-01 1.927732528144326125e+03 8.990932395551943719e-25 8.990932395551943719e-25 2.002369598023999442e-01
4.687178226618903831e-08 2.101980591425045841e-01 1.927731333698287472e+03 1.096562432930132105e-24 1.096562432930132105e-24 2.101980591425045841e-01
4.927494993207486636e-08 2.206546888790023586e-01 1.927730139252988693e+03 1.337402080688020747e-24 1.337402080688020747e-24 2.206546888790023309e-01
5.180133063896607448e-08 2.316314999430169330e-01 1.927728944808430242e+03 1.631137700613359847e-24 1.631137700613359847e-24 2.316314999430169330e-01
5.445724165456282517e-08 2.431543695646230518e-01 1.927727750364611893e+03 1.989386914213187797e-24 1.989386914213187797e-24 2.431543695646230796e-01
5.724932413980639051e-08 2.552504622769969367e-01 1.927726555921533418e+03 2.426318938587749034e-24 2.426318938587749034e-24 2.552504622769969367e-01
6.018455975524068256e-08 2.679482939553139986e-01 1.927725361479195271e+03 2.959214997188180293e-24 2.959214997188180293e-24 2.679482939553139431e-01
6.327028811880025786e-08 2.812777990413598550e-01 1.927724167037597226e+03 3.609151814427363020e-24 3.609151814427363020e-24 2.812777990413598550e-01
6.651422515867811463e-08 2.952704011123357675e-01 1.927722972596739055e+03 4.401835227234751505e-24 4.401835227234751505e-24 2.952704011123357675e-01
6.992448240716530936e-08 3.099590869602182330e-01 1.927721778156620985e+03 5.368616883964213314e-24 5.368616883964213314e-24 3.099590869602182885e-01
7.350958728370673588e-08 3.253784843563121143e-01 1.927720583717243244e+03 6.547734242404102973e-24 6.547734242404102973e-24 3.253784843563120588e-01
7.727850441789147412e-08 3.415649436843220532e-01 1.927719389278605377e+03 7.985822910405505760e-24 7.985822910405505760e-24 3.415649436843220532e-01
8.124065806569624218e-08 3.585566236343888380e-01 1.927718194840707611e+03 9.739761144145344391e-24 9.739761144145344391e-24 3.585566236343888935e-01
8.540595567503422470e-08 3.763935811601085701e-01 1.927717000403550173e+03 1.187891945630265239e-23 1.187891945630265239e-23 3.763935811601086256e-01
8.978481265953541414e-08 3.951178659106037716e-01 1.927715805967132610e+03 1.448790430904432076e-23 1.448790430904432076e-23 3.951178659106038271e-01
9.438817844250578272e-08 4.147736193602648558e-01 1.927714611531454921e+03 1.766990440840624220e-23 1.766990440840624220e-23 4.147736193602649113e-01
9.922756383618892362e-08 4.354071788698558043e-01 1.927713417096517787e+03 2.155077195031598609e-23 2.155077195031598609e-23 4.354071788698557488e-01
1.043150698247923140e-07 4.570671869242996510e-01 1.927712222662320528e+03 2.628400023678545896e-23 2.628400023678545896e-23 4.570671869242997065e-01
1.096634178232509997e-07 4.798047058046704949e-01 1.927711028228863370e+03 3.205679453339529471e-23 3.205679453339529471e-23 4.798047058046705504e-01
1.152859814873911766e-07 5.036733379647195807e-01 1.927709833796146313e+03 3.909747627829130079e-23 3.909747627829130079e-23 5.036733379647195807e-01
1.211968201550358074e-07 5.287293523957204977e-01 1.927708639364169130e+03 4.768451348868060773e-23 4.768451348868060773e-23 5.287293523957203867e-01
1.274107140016724103e-07 5.550318172775302594e-01 1.927707444932932276e+03 5.815753452901739114e-23 5.815753452901739114e-23 5.550318172775302594e-01
1.339432009985902840e-07 5.826427392285834506e-01 1.927706250502435296e+03 7.093076084957309275e-23 7.093076084957309275e-23 5.826427392285835616e-01
1.408106157659022612e-07 6.116272094830957906e-01 1.927705056072678644e+03 8.650938997747671508e-23 8.650938997747671508e-23 6.116272094830956796e-01
1.480301304176032352e-07 6.420535573400766305e-01 1.927703861643662094e+03 1.055095767285878943e-22 1.055095767285878943e-22 6.420535573400766305e-01
1.556197975007996717e-07 6.739935112459060074e-01 1.927702667215385191e+03 1.286828029228286993e-22 1.286828029228286993e-22 6.739935112459060074e-01
1.635985951364806400e-07 7.075223678902126112e-01 1.927701472787848843e+03 1.569455994565547390e-22 1.569455994565547390e-22 7.075223678902126112e-01
1.719864744747053890e-07 7.427191697136887871e-01 1.927700278361052369e+03 1.914157962781483619e-22 1.914157962781483619e-22 7.427191697136886761e-01
1.808044095828707509e-07 7.796668912463122769e-01 1.927699083934996224e+03 2.334567339999885921e-22 2.334567339999885921e-22 7.796668912463123879e-01
1.900744498918043819e-07 8.184526347152458747e-01 1.927697889509679726e+03 2.847311857729017062e-22 2.847311857729017062e-22 8.184526347152460968e-01
1.998197753308269582e-07 8.591678353835652260e-01 1.927696695085103556e+03 3.472671221025759006e-22 3.472671221025759006e-22 8.591678353835652260e-01
2.100647542896494309e-07 9.019084771038747839e-01 1.927695500661267488e+03 4.235379196909966443e-22 4.235379196909966443e-22 9.019084771038747839e-01
2.208350045520400052e-07 9.467753185949755457e-01 1.927694306238171521e+03 5.165601866657286361e-22 5.165601866657286361e-22 9.467753185949753236e-01
2.321574573536275162e-07 9.938741309750204200e-01 1.927693111815815428e+03 6.300130733106700695e-22 6.300130733106700695e-22 9.938741309750203090e-01
2.440604247240182258e-07 1.043315947111122632e+00 1.927691917394199436e+03 7.683837871911028845e-22 7.683837871911028845e-22 1.043315947111122632e+00
2.565736702816169077e-07 1.095217323373252061e+00 1.927690722973323773e+03 9.371450679833738462e-22 9.371450679833738462e-22 1.095217323373252061e+00
2.697284836581760694e-07 1.149700614409484123e+00 1.927689528553188211e+03 1.142971641366941844e-21 1.142971641366941844e-21 1.149700614409484123e+00
2.835577587391734652e-07 1.206894261590372830e+00 1.927688334133792296e+03 1.394004213008587715e-21 1.394004213008587715e-21 1.206894261590373052e+00
2.980960759156591914e-07 1.266933095802436515e+00 1.927687139715136709e+03 1.700171443940336922e-21 1.700171443940336922e-21 1.266933095802436515e+00
3.133797885532457531e-07 1.329958655304579684e+00 1.927685945297221451e+03 2.073582641871372541e-21 2.073582641871372541e-21 1.329958655304579684e+00
3.294471138944575128e-07 1.396119519396775033e+00 1.927684750880046067e+03 2.529006699880292168e-21 2.529006699880292168e-21 1.396119519396774811e+00
3.463382286217434590e-07 1.465571658687614187e+00 1.927683556463610557e+03 3.084456225128909017e-21 3.084456225128909017e-21 1.465571658687614409e+00
3.640953693201105532e-07 1.538478802786464428e+00 1.927682362047915376e+03 3.761899960639410855e-21 3.761899960639410855e-21 1.538478802786464650e+00
3.827629380905862937e-07 1.615012826287042458e+00 1.927681167632960069e+03 4.588131677332313949e-21 4.588131677332313949e-21 1.615012826287042236e+00
4.023876135785991689e-07 1.695354153952344012e+00 1.927679973218745090e+03 5.595829902122706412e-21 5.595829902122706412e-21 1.695354153952344234e+00
4.230184676949061308e-07 1.779692186056125891e+00 1.927678778805269985e+03 6.824850395683752203e-21 6.824850395683752203e-21 1.779692186056125669e+00
4.447070883209299721e-07 1.868225744883663442e+00 1.927677584392534982e+03 8.323802499035161606e-21 8.323802499035161606e-21 1.868225744883663442e+00
4.675077083053337577e-07 1.961163543444387258e+00 1.927676389980540080e+03 1.015197169549129777e-20 1.015197169549129777e-20 1.961163543444387480e+00
4.914773410743910330e-07 2.058724677501352573e+00 1.927675195569285052e+03 1.238166442776636152e-20 1.238166442776636152e-20 2.058724677501352573e+00
5.166759231952484785e-07 2.161139142077487474e+00 1.927674001158770352e+03 1.510106791076861430e-20 1.510106791076861430e-20 2.161139142077487474e+00
5.431664642485636684e-07 2.268648373656244832e+00 1.927672806748995754e+03 1.841773804935725347e-20 1.841773804935725347e-20 2.268648373656245276e+00
5.710152043852764370e-07 2.381505819354867715e+00 1.927671612339961257e+03 2.246285341269460835e-20 2.246285341269460835e-20 2.381505819354867715e+00
6.002917799614893647e-07 2.499977534412073599e+00 1.927670417931666634e+03 2.739640351534995170e-20 2.739640351534995170e-20 2.499977534412073599e+00
6.310693976656303946e-07 2.624342809398685361e+00 1.927669223524112113e+03 3.341351660834451237e-20 3.341351660834451237e-20 2.624342809398684917e+00
6.634250175733048092e-07 2.754894828629834258e+00 1.927668029117297920e+03 4.075217725241090880e-20 4.075217725241090880e-20 2.754894828629834258e+00
6.974395455875716885e-07 2.891941361330903515e+00 1.927666834711223373e+03 4.970263891341424373e-20 4.970263891341424373e-20 2.891941361330903515e+00
7.331980357458429965e-07 3.035805487186600704e+00 1.927665640305889156e+03 6.061890386018805763e-20 6.061890386018805763e-20 3.035805487186600260e+00
7.707899028992801601e-07 3.186826357983592040e+00 1.927664445901295039e+03 7.393272440950757969e-20 7.393272440950757969e-20 3.186826357983592040e+00
8.103091462964959756e-07 3.345359997142240083e+00 1.927663251497440797e+03 9.017067928544429623e-20 9.017067928544429623e-20 3.345359997142240083e+00
8.518545846306379992e-07 3.511780139022295355e+00 1.927662057094326656e+03 1.099750004850742408e-19 1.099750004850742408e-19 3.511780139022295799e+00
8.955301031375940196e-07 3.686479109981143587e+00 1.927660862691952616e+03 1.341289743798615730e-19 1.341289743798615730e-19 3.686479109981143587e+00
9.414449133631929834e-07 3.869868753261687111e+00 1.927659668290318905e+03 1.635879216989431491e-19 1.635879216989431491e-19 3.869868753261686667e+00
9.897138262489554719e-07 4.062381399890196754e+00 1.927658473889425068e+03 1.995169816924919176e-19 1.995169816924919176e-19 4.062381399890197642e+00
1.040457539219250091e-06 4.264470887872997551e+00 1.927657279489271104e+03 2.433371948874104696e-19 2.433371948874104696e-19 4.264470887872997551e+00
1.093802937987721706e-06 4.476613632094678330e+00 1.927656085089857470e+03 2.967817070676035764e-19 2.967817070676035764e-19 4.476613632094679218e+00
1.149883413837669279e-06 4.699309747440048035e+00 1.927654890691183709e+03 3.619643174185278800e-19 3.619643174185278800e-19 4.699309747440048035e+00
1.208839197169732872e-06 4.933084227787564835e+00 1.927653696293250050e+03 4.414630820032867903e-19 4.414630820032867903e-19 4.933084227787565723e+00
1.270817708150938562e-06 5.178488183653590760e+00 1.927652501896056492e+03 5.384222791952606977e-19 5.384222791952606977e-19 5.178488183653591648e+00
1.335973925341904388e-06 5.436100141405224129e+00 1.927651307499603035e+03 6.566767699312646119e-19 6.566767699312646119e-19 5.436100141405225017e+00
1.404470773223965279e-06 5.706527407104478478e+00 1.927650113103889680e+03 8.009036713931631659e-19 8.009036713931631659e-19 5.706527407104478478e+00
1.476479529595241322e-06 5.990407498199012082e+00 1.927648918708916199e+03 9.768073430071072884e-19 9.768073430071072884e-19 5.990407498199011194e+00
1.552180253854346638e-06 6.288409646434547362e+00 1.927647724314682819e+03 1.191345001194545487e-18 1.191345001194545487e-18 6.288409646434548250e+00
1.631762237242675479e-06 6.601236375532023359e+00 1.927646529921189767e+03 1.453001886228557860e-18 1.453001886228557860e-18 6.601236375532023359e+00
1.715424476171102536e-06 6.929625157348707987e+00 1.927645335528436590e+03 1.772126864398523878e-18 1.772126864398523878e-18 6.929625157348707987e+00
1.803376169814662967e-06 7.274350150427690842e+00 1.927644141136423286e+03 2.161341738980339849e-18 2.161341738980339849e-18 7.274350150427690842e+00
1.895837243219456938e-06 7.636224025034165308e+00 1.927642946745150311e+03 2.636040458787398310e-18 2.636040458787398310e-18 7.636224025034166196e+00
1.993038897229818866e-06 8.016099878981023608e+00 1.927641752354617438e+03 3.214997968642517908e-18 3.214997968642517908e-18 8.016099878981023608e+00
2.095224186610854891e-06 8.414873248760148527e+00 1.927640557964824438e+03 3.921112782589936530e-18 3.921112782589936530e-18 8.414873248760148527e+00
2.202648627811958361e-06 8.833484220720603020e+00 1.927639363575771313e+03 4.782312649572874453e-18 4.782312649572874453e-18 8.833484220720603020e+00
2.315580837891024191e-06 9.272919647270617460e+00 1.927638169187458743e+03 5.832659131818830369e-18 5.832659131818830369e-18 9.272919647270619237e+00
2.434303206197011092e-06 9.734215473328017509e+00 1.927636974799885820e+03 7.113694783428262816e-18 7.113694783428262816e-18 9.734215473328017509e+00
2.559112600490403865e-06 1.021845917850357921e+01 1.927635780413053226e+03 8.676086211812302621e-18 8.676086211812302621e-18 1.021845917850357566e+01
2.690321109267247066e-06 1.072679234077454780e+01 1.927634586026960733e+03 1.058162800717225190e-17 1.058162800717225190e-17 1.072679234077454780e+01
2.828256822142941847e-06 1.126041332769211145e+01 1.927633391641607886e+03 1.290568679800878714e-17 1.290568679800878714e-17 1.126041332769210968e+01
2.973264650247182283e-06 1.182058012146718617e+01 1.927632197256995369e+03 1.574018209819942227e-17 1.574018209819942227e-17 1.182058012146718440e+01
3.125707188681433154e-06 1.240861328459449275e+01 1.927631002873122952e+03 1.919722184197925368e-17 1.919722184197925368e-17 1.240861328459449453e+01
3.285965623195552260e-06 1.302589907300620631e+01 1.927629808489990637e+03 2.341353639690885368e-17 2.341353639690885368e-17 1.302589907300620453e+01
3.454440683350715895e-06 1.367389270409426594e+01 1.927628614107597969e+03 2.855588642574421059e-17 2.855588642574421059e-17 1.367389270409426771e+01
3.631553644552051256e-06 1.435412178730561905e+01 1.927627419725945629e+03 3.482765848510008863e-17 3.482765848510008863e-17 1.435412178730562083e+01
3.817747381456583501e-06 1.506818992539766988e+01 1.927626225345033390e+03 4.247690922531579171e-17 4.247690922531579171e-17 1.506818992539766811e+01
4.013487475390560301e-06 1.581778049484383430e+01 1.927625030964861253e+03 5.180617634997268362e-17 5.180617634997268362e-17 1.581778049484383430e+01
4.219263378545278646e-06 1.660466061430129159e+01 1.927623836585429217e+03 6.318444437112923127e-17 6.318444437112923127e-17 1.660466061430129159e+01
4.435589637862505628e-06 1.743068531049624070e+01 1.927622642206736828e+03 7.706173842128043696e-17 7.706173842128043696e-17 1.743068531049624070e+01
4.663007181669850359e-06 1.829780189134773849e+01 1.927621447828784767e+03 9.398692332607300179e-17 9.398692332607300179e-17 1.829780189134773849e+01
4.902084672283341335e-06 1.920805453663927764e+01 1.927620253451572808e+03 1.146294119139903706e-16 1.146294119139903706e-16 1.920805453663927764e+01
5.153419927959414359e-06 2.016358911706051771e+01 1.927619059075100949e+03 1.398056411545723776e-16 1.398056411545723776e-16 2.016358911706051771e+01
5.417641417751947798e-06 2.116665825297977932e+01 1.927617864699368965e+03 1.705113632904850318e-16 1.705113632904850318e-16 2.116665825297978287e+01
5.695409833012251610e-06 2.221962662487297990e+01 1.927616670324377083e+03 2.079610291192380002e-16 2.079610291192380002e-16 2.221962662487298346e+01
5.987419739461582321e-06 2.332497654792819830e+01 1.927615475950125301e+03 2.536358210839892797e-16 2.536358210839892797e-16 2.332497654792819830e+01
6.294401313967230556e-06 2.448531382396758715e+01 1.927614281576613394e+03 3.093422359439474147e-16 3.093422359439474147e-16 2.448531382396758360e+01
6.617122170365021529e-06 2.570337388448223237e+01 1.927613087203841815e+03 3.772835340443219270e-16 3.772835340443219270e-16 2.570337388448223237e+01
6.956389278893736092e-06 2.698202823926188998e+01 1.927611892831810110e+03 4.601468810963316333e-16 4.601468810963316333e-16 2.698202823926188998e+01
